x,vx,z,vz,az,theta
0.0,1.0,5.0,-5.0,10.0,0.100167421162,
0.01,1.005,4.95,-4.99050125629,7.11551642631e-13,0.062652474161,
0.02005,1.00093316713,4.90009498743,-5.08082905341,7.36419781195e-13,0.0412514024171,
0.030059331671,0.997042370592,4.84928669693,-5.17099569686,1.05394017734e-12,0.0272789790921,
0.0400297553776,0.99332291282,4.79757674003,-5.260995616,4.45004641577e-13,0.0178992373613,
0.0499629845055,0.989769868807,4.74496678399,-5.35082436415,8.8929268648e-13,0.0132602271306,
0.059860683194,0.986378272369,4.69145854063,-5.44047837675,6.15120430534e-13,0.00894290435259,
0.069724465922,0.983143132693,4.63705375711,-5.52995487328,6.80926919306e-13,0.00589169272874,
0.0795558972476,0.980059563575,4.58175420864,-5.61925173676,2.94496685663e-13,0.00555048486176,
0.0893564928894,0.977122793239,4.52556169153,-5.70836742462,5.3948405248e-13,0.00541667270165,
0.099127720827,0.974328218447,4.46847801762,-5.79730080278,1.47434830028e-13,0.00488560145486,
0.108871003006,0.971671411735,4.41050500995,-5.88605122096,3.00487851897e-13,0.00236270404836,
0.118587717133,0.969148136813,4.35164449836,-5.97461830045,2.04384056198e-14,0.00127361224403,
0.128279198493,0.9667543708,4.29189831581,-6.06300185582,1.79583879402e-13,0.000823747359174,
0.137946742191,0.964486284859,4.23126829774,-6.15120200595,9.37152763872e-14,-5.04833428446e-05,
0.14759160505,0.962340263295,4.16975627858,-6.23921899212,2.84040570284e-13,-0.00149294687096,
0.157215007643,0.960312906157,4.10736408938,-6.32705321413,1.38790904864e-13,-0.00321813034802,
0.166818136685,0.958400999225,4.0440935583,-6.41470517598,3.65291121067e-13,-0.00440219203441,
0.176402146588,0.956601527591,3.97994650735,-6.50217543378,2.83772017463e-13,-0.00509124926897,
0.185968161893,0.954911654353,3.91492475096,-6.58946465138,1.62894150563e-13,-0.00502617351128,
0.195517278381,0.953328726306,3.84903010528,-6.67657344905,2.3662621331e-13,-0.00463774520643,
0.205050565614,0.951850279218,3.78226436875,-6.76350256487,3.23740525639e-13,-0.00321882541809,
0.21456906839,0.950473989206,3.71462934089,-6.85025281512,2.6445186577e-13,-0.00315895463662,
0.224073808213,0.948988941239,3.64612681377,-6.93675888801,3.71815712757e-13,-0.00158844836865,
0.233563697687,0.947260595924,3.5767592263,-7.02298343093,3.72048553791e-13,0.00156179206022,
0.243036303707,0.945282210977,3.5065293932,-7.10892534595,4.78601911523e-13,0.00357454434204,
0.252489125694,0.94304917353,3.43544013678,-7.19458511464,3.64019027882e-13,0.00763062665999,
0.26191961759,0.94055755001,3.36349428703,-7.27996321927,4.64660040678e-13,0.0147697394803,
0.271325193062,0.937803920227,3.2906946563,-7.365060223,6.56178594569e-13,0.0225886842827,
0.280703232151,0.934785402863,3.21704405089,-7.44987658645,1.03646214379e-12,0.0350048360807,
0.290051086047,0.931499521092,3.14254528194,-7.5344129089,1.49965029004e-12,0.0549834000074,
0.299366081299,0.927944195986,3.06720115442,-7.6186696287,1.92495419031e-12,0.0854306594845,
0.308645523623,0.924117624993,2.99101445945,-7.70264727102,2.5824816266e-12,0.134252195276,
0.317886700199,0.920018305165,2.91398798708,-7.78634637543,3.25274068078e-12,0.211269660425,
0.327086882948,0.91564493959,2.83612452569,-7.86976745029,4.75240948354e-12,0.331992423416,
0.336243332549,0.910996449962,2.75742684839,-7.95291091905,13.1020487844,0.5235,
0.345353297348,0.971570966309,2.67789774056,-7.92230366338,20.0,0.5235,
0.355069007202,1.06602501235,2.59867470646,-7.83190510249,20.0,0.5235,
0.365729257587,1.15970324676,2.52035565695,-7.74157606966,20.0,0.5235,
0.377326289646,1.25260754895,2.44293989181,-7.65131626175,20.0,0.5235,
0.389852365121,1.34473986637,2.36642673181,-7.56112532458,20.0,0.5235,
0.403299763441,1.43708701611,2.29081547645,-7.46929778306,20.0,0.402567411928,
0.417670633709,1.50992664543,2.21612249938,-7.36055456056,20.0,0.291801134827,
0.432769900447,1.56062449074,2.142516956,-7.24324485737,20.0,0.211838405898,
0.448376145422,1.59557501258,2.0700845078,-7.11968952684,20.0,0.152220896588,
0.464331895437,1.61776670315,1.99888761311,-6.99687834614,20.0,0.106215945176,
0.480509562786,1.63162670926,1.92891883056,-6.87289500437,20.0,0.0698247823682,
0.496825830379,1.63947729971,1.86018988173,-6.74962075987,20.0,0.040360685333,
0.513220604168,1.64240062134,1.79269367558,-6.62261642272,20.0,0.0160071350738,
0.529644610655,1.64006571747,1.72646751226,-6.49563584648,20.0,-0.00439703672005,
0.546045267342,1.63341905646,1.66151115421,-6.36762932303,20.0,-0.02178090568,
0.562379458289,1.62304572012,1.59783486122,-6.24032963864,20.0,-0.0367625534795,
0.578609914796,1.60939421025,1.53543156503,-6.1134658862,20.0,-0.0497982919002,
0.594703857319,1.59332215978,1.47429690477,-5.98746120047,20.0,-0.0612723350978,
0.610637077986,1.57560430424,1.41442229228,-5.86539528825,20.0,-0.0714158727465,
0.626393120337,1.55627073338,1.35576833971,-5.74458224307,20.0,-0.0804957996047,
0.641955828091,1.53515526538,1.2983225175,-5.62421147303,20.0,-0.0886398412962,
0.657307380899,1.51199918138,1.24208040235,-5.50188076072,20.0,-0.0960090961576,
0.672427372565,1.48697157009,1.18706159496,-5.37936315947,20.0,-0.102721031944,
0.687297088027,1.46048577366,1.13326796265,-5.25741057462,20.0,-0.10883018373,
0.70190194572,1.43283948664,1.08069385772,-5.13639978923,20.0,-0.114443550373,
0.716230339953,1.40411134436,1.02932985969,-5.01594637385,20.0,-0.119621730797,
0.730271453565,1.37443455892,0.979170395462,-4.89605313544,20.0,-0.124413570546,
0.744015798999,1.34378319598,0.930209863757,-4.77561454921,20.0,-0.128866708008,
0.757453631166,1.31243076181,0.882453718743,-4.65629861408,20.0,-0.133011221282,
0.770577939284,1.28032625552,0.835890732574,-4.53713826898,20.0,-0.136877181471,
0.783381201417,1.24742877644,0.790519350127,-4.41787023677,20.0,-0.140502735457,
0.795855488809,1.21374263014,0.746340648338,-4.29856655108,20.0,-0.14391143689,
0.80799291464,1.17916534009,0.703354981971,-4.18040293569,20.0,-0.147125843366,
0.819784567951,1.14361689455,0.661550951918,-4.06202573815,20.0,-0.150152789169,
0.831220736724,1.10746196706,0.62093069504,-3.94384780221,20.0,-0.153016925966,
0.842295357028,1.07086222856,0.581492216287,-3.82647139531,20.0,-0.155746063452,
0.853003979003,1.03377679861,0.543227502677,-3.70951068001,20.0,-0.158329271825,
0.863341747719,0.99628435685,0.506132395618,-3.59273063998,20.0,-0.158922638694,
0.873304590876,0.959548260741,0.470205088947,-3.47310237401,20.0,-0.159217922311,
0.882900074459,0.922651999964,0.435474064763,-3.3503634898,20.0,-0.159606757662,
0.892126594222,0.885113440406,0.401970430381,-3.22218681073,20.0,-0.160065913512,
0.90097772797,0.847847314274,0.369748562756,-3.0950451179,20.0,-0.160636203127,
0.909456198264,0.810287947094,0.338798112065,-2.96523398367,20.0,-0.161309197098,
0.917559077332,0.77373027472,0.309145771909,-2.8380148357,20.0,-0.162079698969,
0.925296378558,0.736161156696,0.280765623283,-2.71193275835,20.0,-0.162955227907,
0.932657992294,0.698457689638,0.253646295363,-2.58406032157,20.0,-0.163940506296,
0.939642568555,0.660776808606,0.227805692819,-2.45466429602,20.0,-0.165046650749,
0.946250335465,0.623108449712,0.203259049586,-2.32365383405,20.0,-0.166267927228,
0.952481420862,0.585486360584,0.180022511,-2.19009829768,20.0,-0.167603880801,
0.958336285894,0.547851856664,0.158121528241,-2.05490824747,20.0,-0.169082110213,
0.963814804255,0.510202896224,0.137572445422,-1.91903912756,20.0,-0.170685166136,
0.968916833301,0.47206972741,0.118382054433,-1.7803506657,20.0,-0.172420919082,
0.973637529879,0.433954108571,0.100578548023,-1.64147979659,20.0,-0.174311196185,
0.977977069497,0.395674796664,0.084163750336,-1.50136012961,20.0,-0.176351388291,
0.981933817582,0.357405379255,0.0691501486558,-1.36200253903,20.0,-0.178533011616,
0.98550787143,0.318849753004,0.0555301232198,-1.21618483225,20.0,-0.180898667697,
0.988696369737,0.279837148416,0.0433682748633,-1.06873931549,20.0,-0.183420532679,
0.991494739673,0.241268530559,0.0326808816753,-0.919400214919,20.0,-0.186131122999,
0.993907425242,0.202008471739,0.0234868794802,-0.770799777041,20.0,-0.18903437313,
0.995927510185,0.162414380606,0.0157788816675,-0.62282903157,20.0,-0.192139714872,
0.997551653938,0.122357011507,0.00955059130648,-0.474538425758,20.0,-0.195444855433,
0.998775224822,0.0814988561628,0.0048052070992,-0.320487061059,20.0,-0.198966110815,
0.999590213098,0.0409787067807,0.00160033648941,-0.160033649165,20.0,-0.20268088125,
1.0,0.0,0.0,0.0,0.0,0.0,
