x,vx,z,vz,az,theta,tbf_x,tbf_z
0.0,1.0,5.0,0.0,10.0,0.100167421162,0.1,-5.0
0.1,1.05,5.0,-0.00501256289338,9.01761911649,0.0860432373377,0.1,-5.0
0.205,1.07499480906,4.99949874371,-0.106486410447,9.03233469288,0.0753593084095,0.095,-4.99949874371
0.312499480906,1.08924771013,4.98885010266,-0.203686742182,9.04866471088,0.0672968190783,0.0875005190943,-4.98885010266
0.421424251918,1.09563400648,4.96848142845,-0.296794770388,9.0662550635,0.0612286497607,0.0785757480816,-4.96848142845
0.530987652567,1.09632908427,4.9388019514,-0.385932283231,9.08483264658,0.0566883709444,0.0690123474331,-4.9388019514
0.640620560994,1.09298548902,4.90020872308,-0.471189719476,9.10420973179,0.0533064779526,0.0593794390062,-4.90020872308
0.749919109896,1.08684456992,4.85308975113,-0.552638162798,9.12425850316,0.0508156166333,0.0500808901042,-4.85308975113
0.858603566888,1.07884787228,4.79782593485,-0.63033734098,9.14488971844,0.0489982556147,0.0413964331124,-4.79782593485
0.966488354115,1.06969591536,4.73479220075,-0.704339168384,9.16604502345,0.0477022243631,0.0335116458846,-4.73479220075
1.07345794565,1.05991861274,4.66435828392,-0.774690552152,9.18769172335,0.0467996825494,0.0265420543494,-4.66435828392
1.17944980692,1.04990509477,4.5868892287,-0.841433532324,9.20981458609,0.0462046055061,0.0205501930756,-4.5868892287
1.2844403164,1.03994828815,4.50274587547,-0.904606311767,9.23240982107,0.0458404835951,0.0155596835989,-4.50274587547
1.38843514522,1.03025787085,4.41228524429,-0.964243056146,9.25548107689,0.0456630902115,0.0115648547849,-4.41228524429
1.4914609323,1.02099368289,4.31586093868,-1.02037485567,9.2790418039,0.0456259869651,0.008539067699,-4.31586093868
1.59356030059,1.01226585983,4.21382345311,-1.07302883226,9.30310498293,0.0457031088743,0.00643969940903,-4.21382345311
1.69478688657,1.00415585103,4.10652056989,-1.12222919207,9.32768873518,0.0458720955447,0.00521311342852,-4.10652056989
1.79520247168,0.996721116494,3.99429765068,-1.16799695165,9.35280851913,0.0461175321404,0.00479752832419,-3.99429765068
1.89487458332,0.990002614666,3.87749795552,-1.21035057357,9.3784802974,0.0464284115355,0.00512541667702,-3.87749795552
1.99387484479,0.98402963156,3.75646289817,-1.24930615898,9.40472058668,0.0467965268625,0.00612515520929,-3.75646289817
2.09227780794,0.978822908836,3.63153228227,-1.28487756042,9.43154586654,0.0472159652541,0.00772219205575,-3.63153228227
2.19016009883,0.974397168366,3.50304452622,-1.31707652962,9.45896911023,0.0476821450482,0.00983990117203,-3.50304452622
2.28759981567,0.970762611647,3.37133687326,-1.34591316673,9.48700105728,0.0481911904235,0.0124001843325,-3.37133687326
2.38467607683,0.96792577299,3.23674555658,-1.37139620581,9.51565475161,0.0487392541081,0.0153239231691,-3.23674555658
2.48146865414,0.965889715869,3.099605936,-1.39353280959,9.54494158725,0.0493225095571,0.0185313458626,-3.099605936
2.57805762572,0.964654192171,2.96025265504,-1.4123287627,9.57486887982,0.0499373676759,0.0219423742779,-2.96025265504
2.67452304494,0.964215986752,2.81901977876,-1.42778891332,9.6054464466,0.0505810841141,0.025476955063,-2.81901977876
2.77094464361,0.964569860805,2.67624088743,-1.43991697844,9.63668564389,0.0512518082424,0.0290553563898,-2.67624088743
2.86740162969,0.965709501885,2.53224918958,-1.44871545295,9.66842529812,0.051948660434,0.032598370311,-2.53224918958
2.96397257988,0.967627609425,2.38737764428,-1.45420290995,9.70055120767,0.0526711088936,0.0360274201238,-2.38737764428
3.06073534082,0.970316480758,2.24195735329,-1.4564090037,9.73367055138,0.0534181083121,0.0392646591821,-2.24195735329
3.15776698889,0.973771353188,2.09631645292,-1.45530218542,9.76751633334,0.0541865584357,0.0422330111068,-2.09631645292
3.25514412421,0.977983692958,1.95078623437,-1.45087811707,9.8020169244,0.054970470266,0.0448558757877,-1.95078623437
3.35294249351,0.982939518621,1.80569842267,-1.4431394516,9.8371846654,0.0557596277161,0.0470575064916,-1.80569842267
3.45123644537,0.988615893053,1.66138447751,-1.43208705556,9.87303662765,0.0565383041458,0.048763554629,-1.66138447751
3.55009803468,0.994975832444,1.51817577195,-1.41771922692,9.90958587062,0.0572907184871,0.0499019653229,-1.51817577195
3.64959561792,1.00196871488,1.37640384926,-1.40003208498,9.94684600257,0.0579814485727,0.0504043820774,-1.37640384926
3.74979248941,1.00951121913,1.23640064077,-1.37901836256,9.98483239557,0.0585893276269,0.050207510588,-1.23640064077
3.85074361133,1.01750265512,1.09849880451,-1.35466801673,10.0235542418,0.0590599574461,0.0492563886739,-1.09849880451
3.95249387684,1.02579218293,0.963032002831,-1.32696687128,10.0630163323,0.0593347837584,0.0475061231603,-0.963032002831
4.05507309514,1.03417623571,0.830335315707,-1.29589678166,10.1032171447,0.0593273539226,0.044926904858,-0.830335315707
4.15849071872,1.04237198261,0.70074563754,-1.2614346412,10.1441454972,0.0589172527881,0.0415092812794,-0.70074563754
4.26272791698,1.04998532958,0.574602173419,-1.22355152761,10.1887642287,0.0579394059925,0.0372720830222,-0.574602173419
4.36772644994,1.05648613225,0.452247020657,-1.16248466485,10.2342451296,0.0561647036826,0.0322735500612,-0.452247020657
4.47337506316,1.06111194095,0.335998554171,-1.05039283381,10.2732983424,0.0532813709391,0.0266249368363,-0.335998554171
4.57948625726,1.06276798559,0.23095927079,-0.893112504045,10.3021594612,0.0488584917191,0.0205137427406,-0.23095927079
4.68576305582,1.05994435952,0.141648020385,-0.698767954728,10.3177244118,0.0422969022419,0.0142369441836,-0.141648020385
4.79175749177,1.05057491191,0.0717712249123,-0.477367158985,10.3171066245,0.032770865497,0.00824250822998,-0.0717712249123
4.89681498296,1.03185017038,0.0240345090138,-0.240345090138,10.2980441382,0.0191721342435,0.00318501703742,-0.0240345090138
5.0,1.0,0.0,0.0,0.0,0.0,-1.7763568394e-15,0.0
