x,vx,z,vz,az,theta,tbf_x,tbf_z
0.0,4.0,5.0,-0.833333333333,10.0,0.411516846067,0.4,-5.0
0.4,4.2,4.91666666667,-0.900151527675,10.3641044336,0.364578643308,0.4,-4.91666666667
0.82,4.35953801021,4.8266515139,-0.913857060827,10.5470889443,0.340424384293,0.38,-4.8266515139
1.25595380102,4.4937148584,4.73526580782,-0.901397546889,10.6110932621,0.328605428261,0.344046198981,-4.73526580782
1.70532528686,4.61147392748,4.64512605313,-0.87903668312,10.6023957812,0.322837771055,0.294674713142,-4.64512605313
2.1664726796,4.71727078874,4.55722238481,-0.85598946792,10.5546811496,0.319819020667,0.233527320396,-4.55722238481
2.63819975847,4.8132408948,4.47162343802,-0.836921886293,10.4901935919,0.317944556933,0.161800241525,-4.47162343802
3.11952384795,4.90051781904,4.38793124939,-0.823740948698,10.4240504191,0.316092327182,0.0804761520494,-4.38793124939
3.60957562985,4.97952860809,4.30555715452,-0.816504552686,10.3653002306,0.313887706901,-0.00957562985031,-4.30555715452
4.10752849068,5.0505898567,4.22390669925,-0.814288882684,10.3169005883,0.311248317007,-0.107528490676,-4.22390669925
4.61258747636,5.11401257395,4.14247781098,-0.815883668456,10.2799387521,0.308091707397,-0.212587476361,-4.14247781098
5.12398873377,5.17004158639,4.06088944414,-0.819976259258,10.2541953501,0.304545930589,-0.323988733768,-4.06088944414
5.64099289239,5.21902184147,3.97889181821,-0.825343715777,10.2373588592,0.30056516789,-0.440992892393,-3.97889181821
6.16289507655,5.26115808291,3.89635744663,-0.830995733449,10.2260377206,0.296277327352,-0.562895076549,-3.89635744663
6.68901088485,5.2966613789,3.81325787329,-0.836326889998,10.2176746909,0.291759039321,-0.689010884848,-3.81325787329
7.21867702275,5.32572681663,3.72962518429,-0.841013351984,10.211047217,0.286991624996,-0.818677022749,-3.72962518429
7.75124970443,5.34848272503,3.64552384909,-0.844851736407,10.2052344795,0.282084897327,-0.95124970443,-3.64552384909
8.28609797695,5.36513021627,3.56103867545,-0.847765204152,10.1991430006,0.277001975212,-1.08609797695,-3.56103867545
8.82261099861,5.37579287484,3.47626215503,-0.849775084969,10.1918599436,0.271696425525,-1.22261099861,-3.47626215503
9.36019028612,5.38051811735,3.39128464654,-0.850980366728,10.1829137517,0.26616186496,-1.36019028612,-3.39128464654
9.89824209788,5.37933379749,3.30618660986,-0.851525922039,10.1722110398,0.260383002087,-1.49824209788,-3.30618660986
10.4361754777,5.37225135736,3.22103401766,-0.851563338677,10.1598707759,0.254355714959,-1.63617547766,-3.22103401766
10.9734006134,5.35928339546,3.13587768379,-0.851233732662,10.1461615486,0.248080923979,-1.77340061342,-3.13587768379
11.509328953,5.3404522256,3.05075431053,-0.850654904363,10.1315096696,0.241470742128,-1.90932895298,-3.05075431053
12.0433741755,5.31570537212,2.96568882009,-0.849885028795,10.1163580631,0.2344828423,-2.04337417555,-2.96568882009
12.5749447128,5.28496357424,2.88070031721,-0.848935291689,10.1009898173,0.227108267074,-2.17494471276,-2.88070031721
13.1034410702,5.2481502795,2.79580678804,-0.847795349364,10.08549336,0.219329062071,-2.30344107018,-2.79580678804
13.6282560981,5.20517768839,2.7110272531,-0.846451259929,10.0697097746,0.211150401454,-2.42825609812,-2.7110272531
14.148773867,5.15596470471,2.62638212711,-0.844915624254,10.0532029605,0.202469858636,-2.54877386695,-2.62638212711
14.6643703375,5.100325671,2.54189056469,-0.843232789095,10.0354760421,0.193331742895,-2.66437033746,-2.54189056469
15.1744029046,5.03812061634,2.45756728578,-0.841517064763,10.0161324639,0.183673357866,-2.77440290455,-2.45756728578
15.6782149662,4.96915160036,2.3734155793,-0.839921195971,9.99494966311,0.173555925608,-2.87821496618,-2.3734155793
16.1751301262,4.8932927468,2.2894234597,-0.838643281241,9.97193112374,0.162937801507,-2.97513012624,-2.2894234597
16.6644594009,4.81039058404,2.20555913158,-0.837885142394,9.94664053199,0.151856199463,-3.06445940088,-2.20555913158
17.1454984592,4.72033710908,2.12177061734,-0.837909988306,9.91720703002,0.140254925997,-3.14549845922,-2.12177061734
17.6175321701,4.62295839004,2.03797961851,-0.839169391044,9.88083162042,0.12811454512,-3.21753217007,-2.03797961851
18.0798280091,4.51805228123,1.9540626794,-0.842400613888,9.83588110234,0.115354392391,-3.27982800912,-1.9540626794
18.5316332373,4.40535938999,1.86982261802,-0.848501345122,9.78398760891,0.101953009307,-3.33163323731,-1.86982261802
18.9721691764,4.28466938498,1.7849724835,-0.858213081017,9.73018559712,0.0878819728169,-3.37216917639,-1.7849724835
19.400636115,4.15583667932,1.6991511754,-0.871785268915,9.67940693915,0.0730132020736,-3.40063611497,-1.6991511754
19.816219783,4.01865452017,1.61197264851,-0.888987734454,9.63509875389,0.0572347125249,-3.416219783,-1.61197264851
20.2180852351,3.87283790184,1.52307387507,-0.909275812377,9.60440979999,0.0405700237468,-3.4180852351,-1.52307387507
20.6053690254,3.71815042857,1.43214629383,-0.931439613628,9.59501191714,0.0228862713456,-3.40536902537,-1.43214629383
20.9771840683,3.55420038256,1.33900233246,-0.953560896298,9.60960264257,0.00428410006014,-3.3771840683,-1.33900233246
21.3326041066,3.38060720009,1.24364624283,-0.973538232138,9.652618785,-0.0151985361169,-3.33260410662,-1.24364624283
21.6706648265,3.19690683934,1.14629241962,-0.98891707133,9.72062153088,-0.0354936342745,-3.27066482654,-1.14629241962
21.9903555105,3.00256672452,1.04740071249,-0.997688813017,9.79308629599,-0.056696984688,-3.19035551052,-1.04740071249
22.2906121829,2.79694427904,0.947631831186,-1.0,9.83071357718,-0.0790680109594,-3.09061218291,-0.947631831186
22.5703066108,2.5794485338,0.847631831186,-1.0,9.85173358996,-0.102526285577,-2.97030661076,-0.847631831186
22.8282514642,2.34964680575,0.747631831186,-1.0,9.88086634871,-0.126589584128,-2.82825146417,-0.747631831186
23.0632161448,2.10741679178,0.647631831186,-0.999819804245,9.91117572875,-0.151109840736,-2.66321614478,-0.647631831186
23.273957824,1.85284765336,0.547649850762,-1.0,9.75804497353,-0.180796546037,-2.473957824,-0.547649850762
23.4592425894,1.58474274749,0.447649850762,-1.0,9.45630000631,-0.215737724028,-2.25924258937,-0.447649850762
23.6177168641,1.30307638416,0.347649850762,-1.0,9.71674897829,-0.230083253269,-2.01771686408,-0.347649850762
23.7480245025,1.01632376151,0.247649850762,-0.938435009286,10.2778489934,-0.228289975368,-1.74802450251,-0.247649850762
23.8496568787,0.732907311237,0.153806349833,-0.779915082918,10.8258521049,-0.214329947531,-1.44965687866,-0.153806349833
23.9229476098,0.466003924701,0.0758148415414,-0.527018336259,10.9917568017,-0.189785843236,-1.12294760977,-0.0758148415414
23.9695480022,0.23534579366,0.0231130079156,-0.231130079156,10.3368649551,-0.149933604565,-0.769548002235,-0.0231130079156
23.9930825816,0.0691741840081,2.89007641603e-18,-2.93481332814e-17,8.35920431321,-0.0786957118136,-0.393082581602,-2.89007641603e-18
24.0,0.0,0.0,0.0,0.0,0.0,-2.13162820728e-14,0.0
